-60
-57
-54
-51
-48
-45
-42
-39
-36
-33
-30
-27
-24
-21
-18
-15
-12
-9
-6
-3
0
3
6
9
12
15
18
21
24
27
30
33
36
39
42
45
48
51
54
57
60
